ang_rot_mes [°mech.],ang_rot_mes [°electric.],Tavg_mes [Nm],Tmin_mes [Nm],Tmax_mes [Nm],iU_mes [A],iV_mes [A],iW_mes [A],ia [A],ib [A],i0 [A],id [A],id_comp [A],iq [A],iq_comp [A],Torque_50Hz [Nm],Torque_100Hz [Nm],Torque_50Hz_Al [Nm],Torque_100Hz_Al [Nm]
19.77,39.53,6.52,6.62,-6.45,25.54,-12.83,-13.07,25.66,0.29,-0.12,19.97,19.85,-16.11,-16.40,5.78,5.65,5.63,5.50
16.80,33.59,6.24,6.13,6.35,25.54,-12.83,-13.07,25.66,0.29,-0.12,21.53,21.41,-13.96,-14.24,5.41,5.29,5.28,5.15
16.10,32.19,5.92,5.86,5.97,25.54,-12.83,-13.07,25.66,0.29,-0.12,21.86,21.74,-13.43,-13.71,5.29,5.18,5.16,5.04
15.39,30.79,5.47,5.39,5.54,25.54,-12.83,-13.07,25.66,0.29,-0.12,22.19,22.07,-12.89,-13.17,5.16,5.05,5.03,4.91
14.60,29.20,5.07,4.97,5.16,25.54,-12.83,-13.07,25.66,0.29,-0.12,22.53,22.41,-12.27,-12.55,4.99,4.88,4.87,4.75
13.06,26.12,4.62,4.51,4.73,25.54,-12.83,-13.07,25.66,0.29,-0.12,23.16,23.04,-11.04,-11.33,4.63,4.53,4.52,4.41
12.41,24.81,4.23,4.11,4.34,25.54,-12.83,-13.07,25.66,0.29,-0.12,23.41,23.29,-10.51,-10.79,4.46,4.36,4.35,4.25
11.84,23.68,3.86,3.77,3.94,25.54,-12.83,-13.07,25.66,0.29,-0.12,23.61,23.49,-10.04,-10.33,4.31,4.21,4.20,4.10
10.47,20.95,3.50,3.39,3.61,25.54,-12.83,-13.07,25.66,0.29,-0.12,24.06,23.94,-8.91,-9.19,3.91,3.82,3.81,3.72
8.71,17.42,2.97,2.86,3.07,25.54,-12.83,-13.07,25.66,0.29,-0.12,24.57,24.44,-7.41,-7.70,3.34,3.27,3.26,3.18
7.92,15.84,2.58,2.49,2.67,25.54,-12.83,-13.07,25.66,0.29,-0.12,24.76,24.64,-6.73,-7.01,3.07,3.00,2.99,2.92
7.33,14.66,2.38,2.31,2.44,25.54,-12.83,-13.07,25.66,0.29,-0.12,24.89,24.77,-6.22,-6.50,2.86,2.80,2.79,2.72
6.09,12.19,2.15,2.03,2.27,25.54,-12.83,-13.07,25.66,0.29,-0.12,25.14,25.02,-5.14,-5.42,2.41,2.36,2.35,2.29
5.15,10.30,1.74,1.64,1.83,25.54,-12.83,-13.07,25.66,0.29,-0.12,25.29,25.17,-4.31,-4.59,2.05,2.01,2.00,1.95
4.12,8.24,1.33,1.28,1.38,25.54,-12.83,-13.07,25.66,0.29,-0.12,25.43,25.31,-3.39,-3.68,1.65,1.62,1.61,1.57
2.73,5.46,0.95,0.86,1.03,25.54,-12.83,-13.07,25.66,0.29,-0.12,25.57,25.45,-2.16,-2.44,1.10,1.08,1.08,1.05
1.20,2.40,0.42,0.56,0.28,25.54,-12.83,-13.07,25.66,0.29,-0.12,25.65,25.53,-0.79,-1.07,0.49,0.48,0.47,0.46
0.00,0.00,0.00,0.00,0.00,25.54,-12.83,-13.07,25.66,0.29,-0.12,25.66,25.54,0.29,0.00,0.00,0.00,0.00,0.00
-0.46,-0.93,-0.03,-0.05,-0.01,25.54,-12.83,-13.07,25.66,0.29,-0.12,25.65,25.53,0.70,0.42,-0.19,-0.18,-0.18,-0.18
-1.38,-2.76,-0.44,-0.46,-0.42,25.54,-12.83,-13.07,25.66,0.29,-0.12,25.61,25.49,1.52,1.23,-0.56,-0.55,-0.54,-0.53
-1.99,-3.99,-0.72,-0.78,-0.65,25.54,-12.83,-13.07,25.66,0.29,-0.12,25.58,25.45,2.07,1.78,-0.81,-0.79,-0.79,-0.77
-2.66,-5.33,-0.94,-1.06,-0.82,25.54,-12.83,-13.07,25.66,0.29,-0.12,25.52,25.40,2.67,2.38,-1.07,-1.05,-1.05,-1.02
-3.14,-6.29,-1.08,-1.19,-0.96,25.54,-12.83,-13.07,25.66,0.29,-0.12,25.47,25.35,3.09,2.81,-1.26,-1.24,-1.23,-1.20
-3.70,-7.41,-1.34,-1.39,-1.29,25.54,-12.83,-13.07,25.66,0.29,-0.12,25.41,25.29,3.59,3.31,-1.48,-1.45,-1.45,-1.41
-4.42,-8.83,-1.60,-1.68,-1.52,25.54,-12.83,-13.07,25.66,0.29,-0.12,25.31,25.19,4.22,3.94,-1.76,-1.72,-1.72,-1.67
-5.02,-10.04,-1.79,-1.88,-1.70,25.54,-12.83,-13.07,25.66,0.29,-0.12,25.21,25.09,4.75,4.47,-1.99,-1.95,-1.94,-1.89
-5.54,-11.08,-2.005,-2.08,-1.93,25.54,-12.83,-13.07,25.66,0.29,-0.12,25.12,25.00,5.21,4.93,-2.19,-2.14,-2.13,-2.08
-6.08,-12.15,-2.15,-2.24,-2.06,25.54,-12.83,-13.07,25.66,0.29,-0.12,25.02,24.90,5.68,5.39,-2.38,-2.33,-2.32,-2.27
-6.85,-13.70,-2.38,-2.54,-2.22,25.54,-12.83,-13.07,25.66,0.29,-0.12,24.86,24.74,6.36,6.07,-2.67,-2.61,-2.60,-2.54
-7.71,-15.41,-2.54,-2.68,-2.4,25.54,-12.83,-13.07,25.66,0.29,-0.12,24.66,24.54,7.09,6.81,-2.96,-2.90,-2.89,-2.82
-8.27,-16.54,-2.86,-2.95,-2.77,25.54,-12.83,-13.07,25.66,0.29,-0.12,24.51,24.39,7.58,7.29,-3.16,-3.09,-3.08,-3.01
-8.89,-17.78,-3.03,-3.15,-2.91,25.54,-12.83,-13.07,25.66,0.29,-0.12,24.34,24.22,8.11,7.82,-3.36,-3.29,-3.28,-3.20
-9.27,-18.55,-3.315,-3.37,-3.26,25.54,-12.83,-13.07,25.66,0.29,-0.12,24.23,24.11,8.43,8.15,-3.49,-3.41,-3.40,-3.32
-9.84,-19.69,-3.5,-3.57,-3.43,25.54,-12.83,-13.07,25.66,0.29,-0.12,24.06,23.94,8.91,8.63,-3.67,-3.59,-3.57,-3.49
-10.36,-20.72,-3.605,-3.67,-3.54,25.54,-12.83,-13.07,25.66,0.29,-0.12,23.90,23.78,9.34,9.06,-3.82,-3.74,-3.73,-3.64
-11.11,-22.21,-3.815,-3.89,-3.74,25.54,-12.83,-13.07,25.66,0.29,-0.12,23.65,23.52,9.96,9.68,-4.04,-3.95,-3.94,-3.85
-11.89,-23.78,-4.005,-4.13,-3.88,25.54,-12.83,-13.07,25.66,0.29,-0.12,23.36,23.24,10.61,10.32,-4.26,-4.16,-4.15,-4.05
-12.50,-25.00,-4.275,-4.32,-4.23,25.54,-12.83,-13.07,25.66,0.29,-0.12,23.13,23.01,11.10,10.82,-4.42,-4.32,-4.31,-4.21
-13.24,-26.47,-4.56,-4.71,-4.41,25.54,-12.83,-13.07,25.66,0.29,-0.12,22.84,22.72,11.69,11.41,-4.60,-4.50,-4.49,-4.38
-14.04,-28.09,-4.995,-5.05,-4.94,25.54,-12.83,-13.07,25.66,0.29,-0.12,22.50,22.38,12.33,12.05,-4.78,-4.68,-4.67,-4.55
-15.61,-31.21,-5.355,-5.52,-5.19,25.54,-12.83,-13.07,25.66,0.29,-0.12,21.79,21.67,13.54,13.26,-5.10,-4.99,-4.97,-4.85
-16.03,-32.06,-5.865,-6.02,-5.71,25.54,-12.83,-13.07,25.66,0.29,-0.12,21.59,21.47,13.86,13.58,-5.17,-5.06,-5.04,-4.93
-16.74,-33.49,-6.25,-6.35,-6.15,25.54,-12.83,-13.07,25.66,0.29,-0.12,21.24,21.12,14.39,14.11,-5.29,-5.17,-5.16,-5.03
-19.12,-38.24,-6.61,-6.77,-6.45,25.54,-12.83,-13.07,25.66,0.29,-0.12,19.98,19.85,16.10,15.82,-5.57,-5.45,-5.44,-5.31
-19.85,-39.69,-6.57,-6.65,-6.49,25.54,-12.83,-13.07,25.66,0.29,-0.12,19.56,19.44,16.61,16.32,-5.63,-5.51,-5.49,-5.36
